1000.000000 [kg]
tempo [s]         x [m]         z [m]        vx [m]        vz [m]   atitude [graus]     fuel [kg]
    0.017      3000.050       100.390         3.000        23.273           148.057       100.000
    0.033      3000.100       100.779         3.000        23.246           148.057       100.000
    0.050      3000.151       101.170         3.000        23.218           148.057       100.000
    0.067      3000.201       101.559         3.000        23.191           148.057       100.000
    0.084      3000.252       101.948         3.000        23.164           148.057       100.000
    0.101      3000.302       102.337         3.000        23.137           148.057       100.000
    0.118      3000.353       102.728         3.000        23.109           148.057       100.000
    0.134      3000.403       103.115         3.000        23.082           148.057       100.000
    0.151      3000.453       103.501         3.000        23.055           148.057       100.000
    0.168      3000.503       103.887         3.000        23.028           148.057       100.000
    0.185      3000.554       104.272         3.000        23.001           148.057       100.000
    0.201      3000.604       104.658         3.000        22.973           148.057       100.000
    0.218      3000.654       105.043         3.000        22.946           148.057       100.000
    0.235      3000.704       105.427         3.000        22.919           148.057       100.000
    0.252      3000.755       105.812         3.000        22.892           148.057       100.000
    0.268      3000.805       106.196         3.000        22.865           148.057       100.000
    0.285      3000.856       106.580         3.000        22.837           148.057       100.000
    0.302      3000.906       106.962         3.000        22.810           148.057       100.000
    0.319      3000.956       107.344         3.000        22.783           148.057       100.000
    0.335      3001.006       107.726         3.000        22.756           148.057       100.000
    0.352      3001.057       108.106         3.000        22.729           148.057       100.000
    0.369      3001.107       108.487         3.000        22.701           148.057       100.000
    0.386      3001.157       108.868         3.000        22.674           148.057       100.000
    0.403      3001.208       109.247         3.000        22.647           148.057       100.000
    0.419      3001.258       109.626         3.000        22.620           148.057       100.000
    0.436      3001.308       110.005         3.000        22.593           148.057       100.000
    0.453      3001.358       110.383         3.000        22.566           148.057       100.000
    0.469      3001.408       110.760         3.000        22.539           148.056       100.000
    0.486      3001.459       111.137         3.000        22.511           148.056       100.000
    0.503      3001.509       111.514         3.000        22.484           148.056       100.000
    0.520      3001.559       111.891         3.000        22.457           148.056       100.000
    0.536      3001.609       112.267         3.000        22.430           148.055       100.000
    0.553      3001.660       112.642         3.000        22.403           148.055       100.000
    0.570      3001.710       113.019         3.000        22.375           148.054       100.000
    0.587      3001.760       113.393         3.000        22.348           148.052       100.000
    0.604      3001.811       113.767         3.000        22.321           148.051       100.000
    0.620      3001.861       114.141         3.000        22.294           148.049       100.000
    0.637      3001.911       114.514         3.000        22.267           148.046       100.000
    0.654      3001.961       114.887         3.000        22.240           148.043       100.000
    0.671      3002.012       115.260         3.000        22.212           148.040       100.000
    0.687      3002.062       115.634         3.000        22.185           148.036       100.000
    0.704      3002.113       116.005         3.000        22.158           148.031       100.000
    0.721      3002.163       116.376         3.000        22.131           148.026       100.000
    0.738      3002.213       116.746         3.000        22.104           148.020       100.000
    0.754      3002.263       117.116         3.000        22.076           148.013       100.000
    0.771      3002.313       117.485         3.000        22.049           148.006       100.000
    0.788      3002.364       117.855         3.000        22.022           147.998       100.000
    0.805      3002.414       118.223         3.000        21.995           147.989       100.000
    0.821      3002.464       118.591         3.000        21.968           147.979       100.000
    0.838      3002.514       118.959         3.000        21.941           147.968       100.000
    0.855      3002.565       119.330         3.000        21.913           147.956       100.000
    0.872      3002.615       119.697         3.000        21.886           147.944       100.000
    0.889      3002.666       120.063         3.000        21.859           147.930       100.000
    0.905      3002.716       120.428         3.000        21.832           147.915       100.000
    0.922      3002.766       120.794         3.000        21.804           147.899       100.000
    0.939      3002.816       121.158         3.000        21.777           147.882       100.000
    0.955      3002.866       121.522         3.000        21.750           147.863       100.000
    0.972      3002.917       121.887         3.000        21.723           147.844       100.000
    0.989      3002.967       122.251         3.000        21.696           147.823       100.000
    1.006      3003.018       122.615         3.000        21.669           147.800       100.000
    1.023      3003.068       122.979         3.000        21.641           147.777       100.000
    1.039      3003.118       123.341         3.000        21.614           147.752       100.000
    1.056      3003.168       123.703         3.000        21.587           147.725       100.000
    1.073      3003.219       124.064         3.000        21.560           147.697       100.000
    1.090      3003.269       124.425         3.000        21.533           147.668       100.000
    1.106      3003.319       124.785         3.000        21.506           147.637       100.000
    1.123      3003.369       125.146         3.000        21.478           147.604       100.000
    1.140      3003.420       125.505         3.000        21.451           147.570       100.000
    1.157      3003.470       125.864         3.000        21.424           147.534       100.000
    1.173      3003.520       126.222         3.000        21.397           147.496       100.000
    1.190      3003.570       126.580         3.000        21.370           147.457       100.000
    1.207      3003.621       126.939         3.000        21.342           147.415       100.000
    1.224      3003.671       127.297         3.000        21.315           147.372       100.000
    1.240      3003.721       127.653         3.000        21.288           147.327       100.000
    1.257      3003.772       128.013         3.000        21.261           147.279       100.000
    1.274      3003.822       128.369         3.000        21.234           147.230       100.000
    1.291      3003.872       128.724         3.000        21.206           147.179       100.000
    1.308      3003.923       129.078         3.000        21.179           147.126       100.000
    1.324      3003.973       129.433         3.000        21.152           147.071       100.000
    1.341      3004.023       129.788         3.000        21.125           147.014       100.000
    1.358      3004.073       130.142         3.000        21.098           146.954       100.000
    1.375      3004.124       130.495         3.000        21.070           146.892       100.000
    1.391      3004.174       130.847         3.000        21.043           146.828       100.000
    1.408      3004.224       131.199         3.000        21.016           146.762       100.000
    1.425      3004.274       131.550         3.000        20.989           146.693       100.000
    1.441      3004.324       131.901         3.000        20.962           146.622       100.000
    1.458      3004.375       132.252         3.000        20.935           146.549       100.000
    1.475      3004.425       132.602         3.000        20.908           146.473       100.000
    1.492      3004.475       132.953         3.000        20.880           146.394       100.000
    1.509      3004.526       133.303         3.000        20.853           146.313       100.000
    1.525      3004.576       133.652         3.000        20.826           146.230       100.000
    1.542      3004.626       134.000         3.000        20.799           146.143       100.000
    1.559      3004.676       134.348         3.000        20.772           146.055       100.000
    1.575      3004.726       134.695         3.000        20.745           145.963       100.000
    1.592      3004.777       135.043         3.000        20.717           145.868       100.000
    1.609      3004.827       135.389         3.000        20.690           145.771       100.000
    1.626      3004.877       135.735         3.000        20.663           145.672       100.000
    1.642      3004.927       136.081         3.000        20.636           145.569       100.000
    1.659      3004.977       136.425         3.000        20.609           145.463       100.000
    1.676      3005.028       136.770         3.000        20.582           145.355       100.000
    1.693      3005.078       137.115         3.000        20.555           145.242       100.000
    1.709      3005.128       137.459         3.000        20.527           145.128       100.000
    1.726      3005.178       137.802         3.000        20.500           145.010       100.000
    1.743      3005.228       138.145         3.000        20.473           144.889       100.000
    1.760      3005.279       138.487         3.000        20.446           144.765       100.000
    1.776      3005.329       138.829         3.000        20.419           144.638       100.000
    1.793      3005.379       139.171         3.000        20.392           144.507       100.000
    1.810      3005.429       139.512         3.000        20.365           144.374       100.000
    1.827      3005.480       139.852         3.000        20.337           144.237       100.000
    1.843      3005.530       140.192         3.000        20.310           144.096       100.000
    1.860      3005.580       140.532         3.000        20.283           143.952       100.000
    1.877      3005.630       140.871         3.000        20.256           143.805       100.000
    1.893      3005.680       141.211         3.000        20.229           143.654       100.000
    1.910      3005.731       141.550         3.000        20.202           143.499       100.000
    1.927      3005.781       141.888         3.000        20.174           143.341       100.000
    1.944      3005.831       142.225         3.000        20.147           143.180       100.000
    1.960      3005.881       142.562         3.000        20.120           143.015       100.000
    1.977      3005.932       142.898         3.000        20.093           142.846       100.000
    1.994      3005.982       143.235         3.000        20.066           142.673       100.000
    2.011      3006.032       143.570         3.000        20.039           142.497       100.000
    2.027      3006.082       143.905         3.000        20.012           142.317       100.000
    2.044      3006.132       144.240         3.000        19.984           142.133       100.000
    2.061      3006.183       144.574         3.000        19.957           141.946       100.000
    2.078      3006.233       144.907         3.000        19.930           141.754       100.000
    2.094      3006.283       145.241         3.000        19.903           141.559       100.000
    2.111      3006.333       145.575         3.000        19.876           141.359       100.000
    2.128      3006.384       145.908         3.000        19.849           141.156       100.000
    2.145      3006.434       146.240         3.000        19.821           140.950       100.000
    2.161      3006.484       146.571         3.000        19.794           140.739       100.000
    2.178      3006.534       146.902         3.000        19.767           140.525       100.000
    2.195      3006.585       147.234         3.000        19.740           140.306       100.000
    2.212      3006.635       147.564         3.000        19.713           140.084       100.000
    2.228      3006.685       147.893         3.000        19.686           139.859       100.000
    2.245      3006.735       148.222         3.000        19.658           139.630       100.000
    2.262      3006.785       148.551         3.000        19.631           139.396       100.000
    2.279      3006.836       148.881         3.000        19.604           139.159       100.000
    2.295      3006.886       149.209         3.000        19.577           138.918       100.000
    2.312      3006.936       149.537         3.000        19.550           138.673       100.000
    2.329      3006.987       149.864         3.000        19.523           138.424       100.000
    2.346      3007.037       150.190         3.000        19.495           138.172       100.000
    2.362      3007.087       150.516         3.000        19.468           137.917       100.000
    2.379      3007.137       150.841         3.000        19.441           137.657       100.000
    2.396      3007.187       151.166         3.000        19.414           137.394       100.000
    2.413      3007.238       151.491         3.000        19.387           137.126       100.000
    2.429      3007.288       151.816         3.000        19.360           136.855       100.000
    2.446      3007.338       152.141         3.000        19.333           136.579       100.000
    2.463      3007.389       152.465         3.000        19.305           136.300       100.000
    2.480      3007.439       152.789         3.000        19.278           136.016       100.000
    2.496      3007.489       153.112         3.000        19.251           135.729       100.000
    2.513      3007.539       153.434         3.000        19.224           135.439       100.000
    2.530      3007.590       153.755         3.000        19.197           135.146       100.000
    2.547      3007.640       154.076         3.000        19.169           134.848       100.000
    2.563      3007.690       154.398         3.000        19.142           134.546       100.000
    2.580      3007.740       154.718         3.000        19.115           134.241       100.000
    2.597      3007.791       155.039         3.000        19.088           133.931       100.000
    2.614      3007.841       155.359         3.000        19.061           133.617       100.000
    2.630      3007.891       155.677         3.000        19.033           133.301       100.000
    2.647      3007.941       155.995         3.000        19.006           132.981       100.000
    2.664      3007.992       156.314         3.000        18.979           132.656       100.000
    2.681      3008.042       156.632         3.000        18.952           132.327       100.000
    2.697      3008.092       156.950         3.000        18.925           131.994       100.000
    2.714      3008.143       157.267         3.000        18.898           131.658       100.000
    2.731      3008.193       157.584         3.000        18.870           131.318       100.000
    2.748      3008.243       157.900         3.000        18.843           130.974       100.000
    2.765      3008.294       158.215         3.000        18.816           130.627       100.000
    2.781      3008.344       158.530         3.000        18.789           130.276       100.000
    2.799      3008.398       158.866         3.000        18.760           129.897       100.000
    2.816      3008.448       159.180         3.000        18.733           129.538       100.000
    2.833      3008.498       159.495         3.000        18.705           129.174       100.000
    2.849      3008.548       159.808         3.000        18.678           128.808       100.000
    2.866      3008.599       160.121         3.000        18.651           128.439       100.000
    2.883      3008.649       160.433         3.000        18.624           128.066       100.000
    2.900      3008.699       160.744         3.000        18.597           127.690       100.000
    2.916      3008.749       161.055         3.000        18.569           127.310       100.000
    2.933      3008.800       161.366         3.000        18.542           126.927       100.000
    2.950      3008.850       161.676         3.000        18.515           126.541       100.000
    2.967      3008.900       161.985         3.000        18.488           126.151       100.000
    2.983      3008.950       162.294         3.000        18.461           125.758       100.000
    3.000      3009.000       162.603         3.000        18.434           125.362       100.000
    3.017      3009.050       162.911         3.000        18.407           124.963       100.000
    3.034      3009.101       163.218         3.000        18.380           124.560       100.000
    3.050      3009.151       163.526         3.000        18.352           124.154       100.000
    3.067      3009.201       163.832         3.000        18.325           123.744       100.000
    3.084      3009.251       164.139         3.000        18.298           123.331       100.000
    3.100      3009.301       164.444         3.000        18.271           122.915       100.000
    3.117      3009.352       164.750         3.000        18.244           122.496       100.000
    3.134      3009.402       165.055         3.000        18.217           122.073       100.000
    3.151      3009.452       165.359         3.000        18.190           121.647       100.000
    3.167      3009.502       165.663         3.000        18.163           121.217       100.000
    3.184      3009.552       165.967         3.000        18.135           120.784       100.000
    3.201      3009.603       166.271         3.000        18.108           120.347       100.000
    3.218      3009.653       166.573         3.000        18.081           119.907       100.000
    3.234      3009.703       166.876         3.000        18.054           119.464       100.000
    3.251      3009.753       167.177         3.000        18.027           119.018       100.000
    3.268      3009.803       167.479         3.000        18.000           118.569       100.000
    3.284      3009.853       167.779         3.000        17.973           118.116       100.000
    3.301      3009.904       168.081         3.000        17.945           117.658       100.000
    3.318      3009.954       168.381         3.000        17.918           117.198       100.000
    3.336      3010.007       168.696         3.000        17.890           116.711       100.000
    3.352      3010.057       168.995         3.000        17.863           116.245       100.000
    3.369      3010.107       169.294         3.000        17.835           115.775       100.000
    3.386      3010.157       169.592         3.000        17.808           115.302       100.000
